X	Y	C	Z	T	Intensity	BG	MX
113.833	118.167	1	1	1	421.796	140.724	218.423
113.141	118.888	1	1	1	450.789	140.724	218.423
112.448	119.609	1	1	1	450.594	140.724	218.423
111.755	120.330	1	1	1	433.208	140.724	218.423
111.062	121.051	1	1	1	405.821	140.724	218.423
110.370	121.773	1	1	1	420.250	140.724	218.423
109.677	122.494	1	1	1	448.328	140.724	218.423
108.984	123.215	1	1	1	446.346	140.724	218.423
108.292	123.936	1	1	1	436.054	140.724	218.423
107.629	124.685	1	1	1	435.953	140.724	218.423
107.081	125.522	1	1	1	430.846	140.724	218.423
106.533	126.358	1	1	1	447.232	140.724	218.423
105.985	127.194	1	1	1	427.311	140.724	218.423
105.437	128.031	1	1	1	437.205	140.724	218.423
104.889	128.867	1	1	1	448.091	140.724	218.423
104.341	129.704	1	1	1	435.935	140.724	218.423
103.793	130.540	1	1	1	442.601	140.724	218.423
103.245	131.377	1	1	1	447.949	140.724	218.423
102.745	132.243	1	1	1	415.199	140.724	218.423
102.285	133.131	1	1	1	432.562	140.724	218.423
101.825	134.019	1	1	1	416.615	140.724	218.423
101.365	134.907	1	1	1	436.931	140.724	218.423
100.905	135.795	1	1	1	427.373	140.724	218.423
100.445	136.683	1	1	1	445.151	140.724	218.423
99.986	137.571	1	1	1	427.700	140.724	218.423
99.526	138.459	1	1	1	426.558	140.724	218.423
99.097	139.362	1	1	1	445.509	140.724	218.423
98.683	140.273	1	1	1	447.977	140.724	218.423
98.269	141.183	1	1	1	419.771	140.724	218.423
97.855	142.093	1	1	1	446.993	140.724	218.423
97.442	143.004	1	1	1	435.937	140.724	218.423
97.028	143.914	1	1	1	440.802	140.724	218.423
96.614	144.824	1	1	1	422.270	140.724	218.423
96.200	145.735	1	1	1	427.606	140.724	218.423
95.786	146.645	1	1	1	409.968	140.724	218.423
95.373	147.555	1	1	1	407.259	140.724	218.423
94.988	148.479	1	1	1	402.191	140.724	218.423
94.878	149.473	1	1	1	409.378	140.724	218.423
94.767	150.466	1	1	1	425.960	140.724	218.423
94.656	151.460	1	1	1	425.007	140.724	218.423
94.545	152.454	1	1	1	421.207	140.724	218.423
94.435	153.448	1	1	1	423.308	140.724	218.423
94.324	154.442	1	1	1	433.688	140.724	218.423
94.213	155.436	1	1	1	436.123	140.724	218.423
94.102	156.430	1	1	1	459.300	140.724	218.423
93.992	157.423	1	1	1	478.529	140.724	218.423
93.881	158.417	1	1	1	472.653	140.724	218.423
93.770	159.411	1	1	1	441.960	140.724	218.423
93.659	160.405	1	1	1	441.220	140.724	218.423
93.548	161.399	1	1	1	439.594	140.724	218.423
93.344	162.378	1	1	1	433.831	140.724	218.423
93.070	163.339	1	1	1	436.290	140.724	218.423
92.795	164.301	1	1	1	434.836	140.724	218.423
92.520	165.262	1	1	1	445.604	140.724	218.423
92.246	166.224	1	1	1	426.728	140.724	218.423
91.971	167.185	1	1	1	410.378	140.724	218.423
91.696	168.147	1	1	1	396.281	140.724	218.423
91.421	169.108	1	1	1	388.790	140.724	218.423
91.147	170.070	1	1	1	400.218	140.724	218.423
90.872	171.031	1	1	1	363.077	140.724	218.423
90.597	171.993	1	1	1	377.082	140.724	218.423
90.323	172.955	1	1	1	376.138	140.724	218.423
90.102	173.930	1	1	1	392.071	140.724	218.423
89.954	174.919	1	1	1	400.233	140.724	218.423
89.806	175.908	1	1	1	414.264	140.724	218.423
89.657	176.897	1	1	1	410.372	140.724	218.423
89.509	177.886	1	1	1	393.651	140.724	218.423
89.360	178.875	1	1	1	415.576	140.724	218.423
89.212	179.864	1	1	1	374.072	140.724	218.423
89.064	180.852	1	1	1	385.820	140.724	218.423
88.915	181.841	1	1	1	415.143	140.724	218.423
88.767	182.830	1	1	1	409.895	140.724	218.423
88.619	183.819	1	1	1	403.448	140.724	218.423
88.470	184.808	1	1	1	430.045	140.724	218.423
88.322	185.797	1	1	1	447.596	140.724	218.423
88.174	186.786	1	1	1	454.210	140.724	218.423
88.167	187.786	1	1	1	484.027	140.724	218.423
88.167	188.786	1	1	1	489.077	140.724	218.423
88.167	189.786	1	1	1	503.773	140.724	218.423
88.167	190.786	1	1	1	508.251	140.724	218.423
88.167	191.786	1	1	1	502.384	140.724	218.423
88.167	192.786	1	1	1	490.235	140.724	218.423
88.167	193.786	1	1	1	499.376	140.724	218.423
88.167	194.786	1	1	1	456.887	140.724	218.423
88.167	195.786	1	1	1	428.409	140.724	218.423
88.167	196.786	1	1	1	411.846	140.724	218.423
88.167	197.786	1	1	1	398.139	140.724	218.423
88.167	198.786	1	1	1	384.872	140.724	218.423
88.167	199.786	1	1	1	368.267	140.724	218.423
88.167	200.786	1	1	1	386.620	140.724	218.423
88.167	201.786	1	1	1	378.414	140.724	218.423
88.167	202.786	1	1	1	384.025	140.724	218.423
88.167	203.786	1	1	1	377.053	140.724	218.423
88.167	204.786	1	1	1	382.251	140.724	218.423
88.167	205.786	1	1	1	395.939	140.724	218.423
88.177	206.786	1	1	1	426.365	140.724	218.423
88.213	207.785	1	1	1	423.167	140.724	218.423
88.248	208.785	1	1	1	422.404	140.724	218.423
88.284	209.784	1	1	1	432.361	140.724	218.423
88.320	210.783	1	1	1	421.583	140.724	218.423
88.355	211.783	1	1	1	419.291	140.724	218.423
88.391	212.782	1	1	1	421.360	140.724	218.423
88.427	213.782	1	1	1	394.141	140.724	218.423
88.462	214.781	1	1	1	388.503	140.724	218.423
88.498	215.780	1	1	1	387.450	140.724	218.423
88.534	216.780	1	1	1	406.949	140.724	218.423
88.569	217.779	1	1	1	391.299	140.724	218.423
88.605	218.778	1	1	1	387.351	140.724	218.423
88.641	219.778	1	1	1	401.453	140.724	218.423
88.677	220.777	1	1	1	381.814	140.724	218.423
88.712	221.776	1	1	1	389.998	140.724	218.423
88.748	222.776	1	1	1	407.552	140.724	218.423
88.784	223.775	1	1	1	437.403	140.724	218.423
88.819	224.775	1	1	1	434.934	140.724	218.423
88.892	225.772	1	1	1	421.319	140.724	218.423
88.987	226.767	1	1	1	449.686	140.724	218.423
89.083	227.763	1	1	1	450.605	140.724	218.423
89.179	228.758	1	1	1	458.218	140.724	218.423
89.274	229.754	1	1	1	460.782	140.724	218.423
89.370	230.749	1	1	1	478.884	140.724	218.423
89.466	231.744	1	1	1	460.712	140.724	218.423
89.562	232.740	1	1	1	441.036	140.724	218.423
89.657	233.735	1	1	1	429.526	140.724	218.423
89.753	234.731	1	1	1	425.234	140.724	218.423
89.849	235.726	1	1	1	431.263	140.724	218.423
89.944	236.721	1	1	1	421.880	140.724	218.423
90.040	237.717	1	1	1	410.449	140.724	218.423
90.136	238.712	1	1	1	407.001	140.724	218.423
90.232	239.708	1	1	1	404.885	140.724	218.423
90.327	240.703	1	1	1	411.136	140.724	218.423
90.423	241.698	1	1	1	431.100	140.724	218.423
90.583	242.686	1	1	1	419.987	140.724	218.423
90.989	243.599	1	1	1	405.092	140.724	218.423
91.395	244.513	1	1	1	423.096	140.724	218.423
91.801	245.427	1	1	1	435.239	140.724	218.423
92.207	246.341	1	1	1	430.679	140.724	218.423
92.613	247.255	1	1	1	437.758	140.724	218.423
93.019	248.169	1	1	1	430.450	140.724	218.423
93.425	249.082	1	1	1	409.017	140.724	218.423
93.832	249.996	1	1	1	424.876	140.724	218.423
94.238	250.910	1	1	1	450.890	140.724	218.423
94.644	251.824	1	1	1	459.447	140.724	218.423
95.050	252.738	1	1	1	458.254	140.724	218.423
95.456	253.651	1	1	1	479.225	140.724	218.423
95.853	254.569	1	1	1	497.638	140.724	218.423
96.128	255.531	1	1	1	490.258	140.724	218.423
96.403	256.492	1	1	1	463.051	140.724	218.423
96.677	257.454	1	1	1	470.064	140.724	218.423
96.952	258.415	1	1	1	471.226	140.724	218.423
97.227	259.377	1	1	1	468.977	140.724	218.423
97.501	260.338	1	1	1	482.166	140.724	218.423
97.776	261.300	1	1	1	487.636	140.724	218.423
98.051	262.261	1	1	1	518.300	140.724	218.423
98.326	263.223	1	1	1	517.290	140.724	218.423
98.600	264.185	1	1	1	502.212	140.724	218.423
98.875	265.146	1	1	1	525.014	140.724	218.423
99.150	266.108	1	1	1	547.434	140.724	218.423
99.424	267.069	1	1	1	551.332	140.724	218.423
99.699	268.031	1	1	1	559.479	140.724	218.423
100.052	268.966	1	1	1	601.704	140.724	218.423
100.476	269.872	1	1	1	620.195	140.724	218.423
100.900	270.778	1	1	1	598.572	140.724	218.423
101.323	271.684	1	1	1	617.862	140.724	218.423
101.747	272.589	1	1	1	639.360	140.724	218.423
102.171	273.495	1	1	1	654.939	140.724	218.423
102.595	274.401	1	1	1	672.320	140.724	218.423
103.019	275.306	1	1	1	654.090	140.724	218.423
103.443	276.212	1	1	1	635.556	140.724	218.423
103.867	277.118	1	1	1	649.557	140.724	218.423
104.291	278.023	1	1	1	656.085	140.724	218.423
104.715	278.929	1	1	1	682.335	140.724	218.423
105.139	279.835	1	1	1	674.756	140.724	218.423
105.563	280.740	1	1	1	679.086	140.724	218.423
105.987	281.646	1	1	1	709.044	140.724	218.423
106.411	282.552	1	1	1	704.056	140.724	218.423
106.835	283.457	1	1	1	748.207	140.724	218.423
107.333	284.325	1	1	1	814.236	140.724	218.423
108.058	285.013	1	1	1	794.750	140.724	218.423
108.783	285.702	1	1	1	783.168	140.724	218.423
109.508	286.391	1	1	1	770.209	140.724	218.423
110.233	287.080	1	1	1	762.969	140.724	218.423
110.958	287.768	1	1	1	707.616	140.724	218.423
111.683	288.457	1	1	1	672.831	140.724	218.423
112.408	289.146	1	1	1	661.999	140.724	218.423
113.133	289.835	1	1	1	606.306	140.724	218.423
113.852	290.529	1	1	1	598.183	140.724	218.423
114.394	291.370	1	1	1	580.934	140.724	218.423
114.936	292.210	1	1	1	567.472	140.724	218.423
115.479	293.050	1	1	1	578.727	140.724	218.423
116.021	293.890	1	1	1	564.065	140.724	218.423
116.563	294.731	1	1	1	564.833	140.724	218.423
117.105	295.571	1	1	1	571.336	140.724	218.423
117.647	296.411	1	1	1	588.747	140.724	218.423
118.189	297.252	1	1	1	614.926	140.724	218.423
118.731	298.092	1	1	1	620.729	140.724	218.423
119.273	298.932	1	1	1	651.360	140.724	218.423
119.816	299.772	1	1	1	680.051	140.724	218.423
120.358	300.613	1	1	1	679.698	140.724	218.423
121.124	301.255	1	1	1	682.781	140.724	218.423
121.953	301.814	1	1	1	646.014	140.724	218.423
122.782	302.374	1	1	1	611.579	140.724	218.423
123.611	302.933	1	1	1	581.767	140.724	218.423
124.440	303.493	1	1	1	570.999	140.724	218.423
125.269	304.052	1	1	1	557.198	140.724	218.423
126.098	304.612	1	1	1	547.688	140.724	218.423
126.926	305.171	1	1	1	546.133	140.724	218.423
127.755	305.731	1	1	1	526.588	140.724	218.423
128.584	306.290	1	1	1	547.920	140.724	218.423
129.413	306.850	1	1	1	568.430	140.724	218.423
130.242	307.409	1	1	1	568.406	140.724	218.423
131.071	307.968	1	1	1	640.669	140.724	218.423
131.899	308.528	1	1	1	654.988	140.724	218.423
132.728	309.087	1	1	1	677.882	140.724	218.423
133.557	309.647	1	1	1	665.002	140.724	218.423
134.438	310.120	1	1	1	657.541	140.724	218.423
135.342	310.548	1	1	1	621.683	140.724	218.423
136.246	310.976	1	1	1	636.032	140.724	218.423
137.149	311.404	1	1	1	605.965	140.724	218.423
138.053	311.832	1	1	1	594.468	140.724	218.423
138.957	312.260	1	1	1	585.353	140.724	218.423
139.861	312.688	1	1	1	570.238	140.724	218.423
140.764	313.116	1	1	1	544.301	140.724	218.423
141.668	313.545	1	1	1	546.019	140.724	218.423
142.572	313.973	1	1	1	547.831	140.724	218.423
143.476	314.401	1	1	1	528.589	140.724	218.423
144.379	314.829	1	1	1	540.884	140.724	218.423
145.283	315.257	1	1	1	533.147	140.724	218.423
146.187	315.685	1	1	1	561.936	140.724	218.423
147.091	316.113	1	1	1	549.712	140.724	218.423
147.994	316.541	1	1	1	564.373	140.724	218.423
148.898	316.969	1	1	1	554.933	140.724	218.423
149.809	317.382	1	1	1	576.001	140.724	218.423
150.755	317.705	1	1	1	589.656	140.724	218.423
151.701	318.029	1	1	1	576.764	140.724	218.423
152.648	318.352	1	1	1	570.736	140.724	218.423
153.594	318.676	1	1	1	585.481	140.724	218.423
154.540	318.999	1	1	1	584.159	140.724	218.423
155.486	319.322	1	1	1	573.832	140.724	218.423
156.433	319.646	1	1	1	572.940	140.724	218.423
157.379	319.969	1	1	1	576.680	140.724	218.423
158.325	320.293	1	1	1	563.097	140.724	218.423
159.271	320.616	1	1	1	535.943	140.724	218.423
160.218	320.939	1	1	1	529.853	140.724	218.423
161.164	321.263	1	1	1	563.253	140.724	218.423
162.110	321.586	1	1	1	562.405	140.724	218.423
163.057	321.907	1	1	1	568.311	140.724	218.423
164.007	322.220	1	1	1	539.289	140.724	218.423
164.957	322.533	1	1	1	560.614	140.724	218.423
165.907	322.846	1	1	1	555.859	140.724	218.423
166.856	323.160	1	1	1	586.418	140.724	218.423
167.806	323.473	1	1	1	589.244	140.724	218.423
168.756	323.786	1	1	1	565.023	140.724	218.423
169.705	324.099	1	1	1	619.587	140.724	218.423
170.655	324.412	1	1	1	632.529	140.724	218.423
171.605	324.725	1	1	1	647.716	140.724	218.423
172.555	325.038	1	1	1	649.013	140.724	218.423
173.504	325.351	1	1	1	650.510	140.724	218.423
174.454	325.664	1	1	1	639.859	140.724	218.423
175.404	325.977	1	1	1	663.224	140.724	218.423
176.353	326.290	1	1	1	629.136	140.724	218.423
177.303	326.604	1	1	1	613.867	140.724	218.423
178.272	326.850	1	1	1	616.808	140.724	218.423
179.270	326.913	1	1	1	634.814	140.724	218.423
180.268	326.975	1	1	1	618.434	140.724	218.423
181.266	327.037	1	1	1	638.930	140.724	218.423
182.264	327.100	1	1	1	609.427	140.724	218.423
183.263	327.162	1	1	1	592.544	140.724	218.423
184.261	327.225	1	1	1	546.462	140.724	218.423
185.259	327.287	1	1	1	521.091	140.724	218.423
186.257	327.349	1	1	1	517.428	140.724	218.423
187.255	327.412	1	1	1	507.299	140.724	218.423
188.253	327.474	1	1	1	495.139	140.724	218.423
189.251	327.536	1	1	1	499.759	140.724	218.423
190.249	327.599	1	1	1	470.719	140.724	218.423
191.247	327.661	1	1	1	452.029	140.724	218.423
192.245	327.724	1	1	1	460.192	140.724	218.423
193.243	327.786	1	1	1	456.902	140.724	218.423
194.241	327.848	1	1	1	462.085	140.724	218.423
195.239	327.911	1	1	1	464.300	140.724	218.423
196.237	327.973	1	1	1	476.742	140.724	218.423
197.235	328.036	1	1	1	495.711	140.724	218.423
198.233	328.098	1	1	1	523.900	140.724	218.423
199.231	328.160	1	1	1	520.541	140.724	218.423
200.231	328.135	1	1	1	526.156	140.724	218.423
201.230	328.100	1	1	1	520.720	140.724	218.423
202.230	328.066	1	1	1	518.127	140.724	218.423
203.229	328.031	1	1	1	499.693	140.724	218.423
204.229	327.996	1	1	1	482.907	140.724	218.423
205.228	327.961	1	1	1	493.336	140.724	218.423
206.227	327.926	1	1	1	503.128	140.724	218.423
207.227	327.891	1	1	1	506.110	140.724	218.423
208.226	327.856	1	1	1	483.512	140.724	218.423
209.226	327.822	1	1	1	470.538	140.724	218.423
210.225	327.787	1	1	1	469.735	140.724	218.423
211.224	327.752	1	1	1	472.677	140.724	218.423
212.224	327.717	1	1	1	436.304	140.724	218.423
213.223	327.682	1	1	1	434.902	140.724	218.423
214.216	327.562	1	1	1	421.352	140.724	218.423
215.198	327.375	1	1	1	394.994	140.724	218.423
216.181	327.188	1	1	1	402.532	140.724	218.423
217.163	327.001	1	1	1	390.750	140.724	218.423
218.145	326.814	1	1	1	371.368	140.724	218.423
219.128	326.626	1	1	1	396.212	140.724	218.423
220.110	326.439	1	1	1	400.177	140.724	218.423
221.092	326.252	1	1	1	402.415	140.724	218.423
222.075	326.065	1	1	1	380.092	140.724	218.423
223.057	325.878	1	1	1	403.296	140.724	218.423
224.039	325.691	1	1	1	393.811	140.724	218.423
225.022	325.504	1	1	1	390.084	140.724	218.423
226.004	325.317	1	1	1	371.183	140.724	218.423
226.986	325.130	1	1	1	378.412	140.724	218.423
227.957	324.888	1	1	1	393.540	140.724	218.423
228.890	324.529	1	1	1	426.059	140.724	218.423
229.823	324.169	1	1	1	468.635	140.724	218.423
230.756	323.810	1	1	1	445.671	140.724	218.423
231.690	323.451	1	1	1	435.789	140.724	218.423
232.623	323.091	1	1	1	426.184	140.724	218.423
233.556	322.732	1	1	1	399.296	140.724	218.423
234.489	322.372	1	1	1	377.354	140.724	218.423
235.422	322.013	1	1	1	367.814	140.724	218.423
236.355	321.654	1	1	1	366.037	140.724	218.423
237.289	321.294	1	1	1	351.761	140.724	218.423
238.222	320.935	1	1	1	339.577	140.724	218.423
239.155	320.575	1	1	1	333.813	140.724	218.423
240.092	320.227	1	1	1	343.455	140.724	218.423
241.062	319.984	1	1	1	359.216	140.724	218.423
242.033	319.742	1	1	1	352.346	140.724	218.423
243.003	319.499	1	1	1	378.267	140.724	218.423
243.973	319.257	1	1	1	396.421	140.724	218.423
244.943	319.014	1	1	1	401.609	140.724	218.423
245.913	318.772	1	1	1	392.686	140.724	218.423
246.883	318.529	1	1	1	389.268	140.724	218.423
247.853	318.287	1	1	1	415.857	140.724	218.423
248.824	318.044	1	1	1	426.998	140.724	218.423
249.794	317.802	1	1	1	449.478	140.724	218.423
250.764	317.559	1	1	1	437.456	140.724	218.423
251.734	317.316	1	1	1	457.660	140.724	218.423
252.665	316.951	1	1	1	437.704	140.724	218.423
253.577	316.542	1	1	1	436.549	140.724	218.423
254.490	316.132	1	1	1	418.199	140.724	218.423
255.402	315.723	1	1	1	403.820	140.724	218.423
256.314	315.313	1	1	1	398.247	140.724	218.423
257.226	314.904	1	1	1	396.587	140.724	218.423
258.139	314.494	1	1	1	389.367	140.724	218.423
259.051	314.084	1	1	1	390.324	140.724	218.423
259.963	313.675	1	1	1	413.953	140.724	218.423
260.875	313.265	1	1	1	378.478	140.724	218.423
261.788	312.856	1	1	1	391.923	140.724	218.423
262.700	312.446	1	1	1	372.758	140.724	218.423
263.612	312.036	1	1	1	372.207	140.724	218.423
264.514	311.604	1	1	1	359.432	140.724	218.423
265.389	311.121	1	1	1	367.208	140.724	218.423
266.265	310.638	1	1	1	376.695	140.724	218.423
267.140	310.154	1	1	1	379.164	140.724	218.423
268.016	309.671	1	1	1	387.794	140.724	218.423
268.891	309.188	1	1	1	388.605	140.724	218.423
269.767	308.705	1	1	1	388.381	140.724	218.423
270.642	308.221	1	1	1	398.959	140.724	218.423
271.518	307.738	1	1	1	405.119	140.724	218.423
272.393	307.255	1	1	1	391.775	140.724	218.423
273.269	306.772	1	1	1	364.635	140.724	218.423
274.144	306.288	1	1	1	373.388	140.724	218.423
275.047	305.858	1	1	1	372.185	140.724	218.423
275.984	305.508	1	1	1	362.640	140.724	218.423
276.920	305.158	1	1	1	352.911	140.724	218.423
277.857	304.808	1	1	1	343.706	140.724	218.423
278.794	304.458	1	1	1	357.838	140.724	218.423
279.731	304.108	1	1	1	338.699	140.724	218.423
280.668	303.758	1	1	1	351.165	140.724	218.423
281.604	303.409	1	1	1	355.459	140.724	218.423
282.541	303.059	1	1	1	363.486	140.724	218.423
283.478	302.709	1	1	1	363.812	140.724	218.423
284.415	302.359	1	1	1	389.956	140.724	218.423
285.351	302.009	1	1	1	420.554	140.724	218.423
286.050	301.293	1	1	1	414.477	140.724	218.423
286.740	300.570	1	1	1	398.894	140.724	218.423
287.431	299.846	1	1	1	408.458	140.724	218.423
288.121	299.123	1	1	1	406.245	140.724	218.423
288.812	298.400	1	1	1	401.263	140.724	218.423
289.502	297.676	1	1	1	434.585	140.724	218.423
290.193	296.953	1	1	1	435.597	140.724	218.423
290.883	296.230	1	1	1	393.803	140.724	218.423
291.574	295.506	1	1	1	378.300	140.724	218.423
292.264	294.783	1	1	1	396.613	140.724	218.423
292.955	294.060	1	1	1	384.301	140.724	218.423
293.374	293.152	1	1	1	370.491	140.724	218.423
293.576	292.172	1	1	1	379.953	140.724	218.423
293.778	291.193	1	1	1	383.689	140.724	218.423
293.981	290.214	1	1	1	374.371	140.724	218.423
294.183	289.234	1	1	1	396.142	140.724	218.423
294.385	288.255	1	1	1	394.579	140.724	218.423
294.588	287.276	1	1	1	412.421	140.724	218.423
294.790	286.296	1	1	1	403.435	140.724	218.423
294.992	285.317	1	1	1	430.076	140.724	218.423
295.195	284.338	1	1	1	410.493	140.724	218.423
295.392	283.357	1	1	1	383.966	140.724	218.423
295.577	282.375	1	1	1	370.071	140.724	218.423
295.763	281.392	1	1	1	373.311	140.724	218.423
295.948	280.409	1	1	1	349.661	140.724	218.423
296.133	279.427	1	1	1	352.547	140.724	218.423
296.319	278.444	1	1	1	372.184	140.724	218.423
296.504	277.461	1	1	1	361.937	140.724	218.423
296.690	276.479	1	1	1	335.387	140.724	218.423
296.875	275.496	1	1	1	324.676	140.724	218.423
297.235	274.563	1	1	1	326.230	140.724	218.423
297.891	273.808	1	1	1	326.153	140.724	218.423
298.547	273.054	1	1	1	309.570	140.724	218.423
299.203	272.299	1	1	1	304.913	140.724	218.423
299.859	271.544	1	1	1	304.976	140.724	218.423
300.515	270.790	1	1	1	309.726	140.724	218.423
301.172	270.035	1	1	1	309.215	140.724	218.423
301.828	269.280	1	1	1	300.904	140.724	218.423
302.484	268.526	1	1	1	298.129	140.724	218.423
303.140	267.771	1	1	1	319.307	140.724	218.423
303.796	267.016	1	1	1	317.830	140.724	218.423
304.452	266.262	1	1	1	323.277	140.724	218.423
305.108	265.507	1	1	1	338.533	140.724	218.423
305.764	264.752	1	1	1	323.561	140.724	218.423
306.406	263.985	1	1	1	333.682	140.724	218.423
307.044	263.215	1	1	1	332.626	140.724	218.423
307.682	262.445	1	1	1	335.187	140.724	218.423
308.320	261.675	1	1	1	355.096	140.724	218.423
308.958	260.905	1	1	1	338.478	140.724	218.423
309.596	260.136	1	1	1	369.147	140.724	218.423
310.235	259.366	1	1	1	369.937	140.724	218.423
310.873	258.596	1	1	1	374.370	140.724	218.423
311.511	257.826	1	1	1	386.727	140.724	218.423
